"Piezo Voltage (V)","Fine In 1 (V)","Fine In 2 (V)",
54.866016,0.733417,0.211906,
54.882870,0.732663,0.211315,
54.899685,0.732762,0.211892,
54.916515,0.733700,0.212802,
54.933346,0.735010,0.213555,
54.950138,0.737036,0.214836,
54.966976,0.740035,0.217033,
54.983784,0.742940,0.219384,
55.000637,0.745089,0.221142,
55.017467,0.746407,0.222440,
55.034290,0.747264,0.223712,
55.051128,0.748506,0.225415,
55.067936,0.750174,0.227111,
55.084751,0.752382,0.228678,
55.101582,0.755527,0.230780,
55.118427,0.757938,0.232475,
55.135250,0.759521,0.234201,
55.152081,0.760813,0.236026,
55.168896,0.761370,0.237181,
55.185719,0.762086,0.237956,
55.202541,0.763806,0.239106,
55.219364,0.766503,0.241094,
55.236195,0.769233,0.243321,
55.253040,0.770991,0.244872,
55.269863,0.771243,0.245502,
55.286694,0.770980,0.245838,
55.303509,0.771348,0.246518,
55.320316,0.773030,0.248141,
55.337154,0.775640,0.249763,
55.353985,0.777621,0.250656,
55.370815,0.778339,0.251242,
55.387646,0.777656,0.251475,
55.404461,0.776667,0.252033,
55.421291,0.777068,0.252508,
55.438107,0.778800,0.252961,
55.454929,0.780740,0.253501,
55.471760,0.781757,0.254070,
55.488613,0.781203,0.254639,
55.505428,0.779703,0.254249,
55.522259,0.778570,0.253506,
55.539089,0.779109,0.253033,
55.555889,0.780356,0.253360,
55.572720,0.781343,0.254022,
55.589550,0.780786,0.253689,
55.606380,0.779195,0.252495,
55.623219,0.777375,0.251124,
55.640041,0.776531,0.250541,
55.656872,0.776843,0.250228,
55.673687,0.776989,0.249473,
55.690495,0.776339,0.248297,
55.707333,0.774937,0.247298,
55.724163,0.772696,0.245968,
55.740993,0.770294,0.244012,
55.757824,0.769096,0.242262,
55.774662,0.768665,0.241063,
55.791470,0.768043,0.239968,
55.808285,0.766181,0.238094,
55.825115,0.763145,0.235593,
55.841938,0.760190,0.233294,
55.858791,0.758200,0.231375,
55.875607,0.756566,0.229123,
55.892437,0.754712,0.226517,
55.909267,0.752143,0.224036,
55.926067,0.749705,0.221991,
55.942898,0.746408,0.219110,
55.959728,0.742372,0.215451,
55.976559,0.738681,0.212148,
55.993397,0.736374,0.209873,
56.010227,0.734562,0.207107,
56.027050,0.731376,0.203672,
56.043865,0.726395,0.200118,
56.060673,0.721066,0.196716,
56.077511,0.717268,0.192951,
56.094349,0.714728,0.189426,
56.111172,0.711317,0.186355,
56.128002,0.706910,0.183166,
56.144840,0.701929,0.179043,
56.161640,0.697023,0.174895,
56.178463,0.691992,0.171599,
56.195293,0.687291,0.167990,
56.212132,0.683435,0.163885,
56.228970,0.679608,0.160424,
56.245800,0.674856,0.157581,
56.262615,0.668642,0.153526,
56.279430,0.662773,0.149170,
56.296246,0.658146,0.146132,
56.313076,0.654412,0.143384,
56.329906,0.649940,0.139854,
56.346737,0.645169,0.136503,
56.363575,0.639598,0.133794,
56.380405,0.633753,0.130527,
56.397228,0.628810,0.127360,
56.414043,0.624996,0.124949,
56.430874,0.620868,0.122621,
56.447689,0.616725,0.120159,
56.464535,0.612367,0.118139,
56.481373,0.607313,0.116214,
56.498180,0.602035,0.113878,
56.515018,0.598477,0.112107,
56.531811,0.596538,0.111604,
56.548641,0.593456,0.110467,
56.565472,0.589480,0.108648,
56.582317,0.585959,0.107811,
56.599140,0.584014,0.108116,
56.615971,0.581700,0.107882,
56.632793,0.579896,0.108170,
56.649609,0.578875,0.111083,
56.666439,0.578223,0.119337,
56.683254,0.575459,0.117038,
56.700092,0.571849,0.112452,
56.716938,0.569687,0.113864,
56.733753,0.568502,0.121816,
56.750584,0.566128,0.116646,
56.767399,0.562967,0.107177,
56.784206,0.559852,0.102001,
56.801044,0.556730,0.098099,
56.817867,0.554287,0.095872,
56.834713,0.552724,0.094311,
56.851551,0.552137,0.092922,
56.868359,0.551693,0.093443,
56.885181,0.550790,0.091766,
56.902004,0.549637,0.090768,
56.918819,0.549169,0.089515,
56.935650,0.550044,0.089687,
56.952503,0.551853,0.090635,
56.969318,0.553390,0.090833,
56.986149,0.554461,0.090823,
57.002972,0.555102,0.091939,
57.019787,0.556887,0.093155,
57.036617,0.559991,0.093998,
57.053432,0.563035,0.094996,
57.070286,0.565824,0.096926,
57.087116,0.568803,0.098756,
57.103931,0.572045,0.100024,
57.120762,0.574765,0.101815,
57.137577,0.578252,0.104175,
57.154385,0.582338,0.106247,
57.171223,0.587787,0.108485,
57.188061,0.592464,0.111201,
57.204891,0.595643,0.113908,
57.221729,0.598722,0.116009,
57.238537,0.603790,0.118570,
57.255352,0.610358,0.122140,
57.272182,0.615662,0.125650,
57.288998,0.619864,0.128420,
57.305828,0.623894,0.131118,
57.322681,0.628943,0.134676,
57.339497,0.634885,0.138640,
57.356327,0.640638,0.142064,
57.373150,0.645937,0.145454,
57.389965,0.651244,0.149423,
57.406796,0.656379,0.153401,
57.423611,0.661098,0.156894,
57.440464,0.666134,0.160443,
57.457294,0.671852,0.164545,
57.474110,0.677659,0.168805,
57.490940,0.682816,0.172657,
57.507755,0.687522,0.176299,
57.524563,0.691753,0.180191,
57.541401,0.696517,0.184146,
57.558247,0.701984,0.188007,
57.575069,0.706805,0.191563,
57.591908,0.711574,0.195332,
57.608738,0.715617,0.199448,
57.625530,0.719258,0.203004,
57.642361,0.723109,0.206145,
57.659176,0.727548,0.209174,
57.676029,0.731777,0.212824,
57.692860,0.735763,0.216703,
57.709675,0.739225,0.219987,
57.726505,0.742024,0.222426,
57.743320,0.744910,0.224824,
57.760143,0.748181,0.227915,
57.776974,0.751545,0.231228,
57.793804,0.754542,0.233934,
57.810642,0.757120,0.236092,
57.827473,0.759423,0.238104,
57.844303,0.761719,0.240433,
57.861111,0.764253,0.242950,
57.877934,0.766483,0.245072,
57.894741,0.768419,0.246843,
57.911587,0.770254,0.248276,
57.928425,0.772148,0.250106,
57.945248,0.773850,0.252083,
57.962086,0.775699,0.253673,
57.978909,0.777189,0.254871,
57.995708,0.778332,0.255880,
58.012539,0.779436,0.257202,
58.029377,0.780635,0.258636,
58.046207,0.781427,0.259573,
58.063038,0.782915,0.260523,
58.079868,0.784151,0.261292,
58.096684,0.784879,0.262175,
58.113499,0.785203,0.263075,
58.130314,0.785503,0.263700,
58.147144,0.786033,0.264162,
58.163998,0.787254,0.264665,
58.180820,0.788222,0.265349,
58.197651,0.788782,0.266332,
58.214481,0.788709,0.266753,
58.231274,0.788469,0.266732,
58.248112,0.788583,0.266612,
58.264942,0.789541,0.267048,
58.281773,0.790612,0.267908,
58.298603,0.791035,0.268728,
58.315418,0.790988,0.268770,
58.332249,0.790601,0.268506,
58.349072,0.790272,0.268114,
58.365887,0.790708,0.268596,
58.382717,0.791526,0.269317,
58.399555,0.791963,0.269780,
58.416386,0.792172,0.269583,
58.433216,0.791757,0.269171,
58.450047,0.791294,0.269192,
58.466862,0.791336,0.269569,
58.483677,0.791783,0.269866,
58.500507,0.792018,0.269896,
58.517323,0.792394,0.269791,
58.534176,0.792068,0.269830,
58.550999,0.791635,0.269955,
58.567829,0.791620,0.269992,
58.584660,0.791682,0.269756,
58.601452,0.792140,0.269797,
58.618290,0.792408,0.270222,
58.635120,0.792024,0.270398,
58.651951,0.791441,0.270135,
58.668781,0.791247,0.269676,
58.685619,0.791641,0.269604,
58.702427,0.792206,0.270239,
58.719242,0.792302,0.270539,
58.736073,0.791605,0.270097,
58.752895,0.790981,0.269594,
58.769741,0.790961,0.269524,
58.786564,0.791803,0.270182,
58.803394,0.792357,0.270469,
58.820225,0.792030,0.270141,
58.837032,0.791145,0.269665,
58.853855,0.790610,0.269744,
58.870686,0.791089,0.269951,
58.887508,0.791668,0.269912,
58.904354,0.791719,0.269737,
58.921185,0.791300,0.269925,
58.938007,0.790768,0.270058,
58.954830,0.790433,0.269602,
58.971653,0.790673,0.269201,
58.988468,0.791069,0.269712,
59.005299,0.791133,0.270280,
59.022129,0.790955,0.270021,
59.038960,0.790148,0.269220,
59.055798,0.789527,0.269134,
59.072605,0.790100,0.269771,
59.089420,0.790826,0.269914,
59.106251,0.790928,0.269515,
59.123074,0.790033,0.269530,
59.139927,0.789145,0.269516,
59.156757,0.789567,0.269374,
59.173573,0.790550,0.269259,
59.190403,0.790716,0.269683,
59.207218,0.789632,0.269698,
59.224033,0.789237,0.269253,
59.240864,0.789669,0.268988,
59.257694,0.789906,0.269413,
59.274532,0.789440,0.269364,
59.291363,0.789330,0.268981,
59.308186,0.789958,0.269220,
59.325001,0.789945,0.269773,
59.341831,0.788929,0.269288,
59.358646,0.788269,0.268488,
59.375477,0.789458,0.269041,
59.392330,0.789993,0.269580,
59.409138,0.788965,0.269092,
59.425976,0.788165,0.268544,
59.442783,0.788228,0.268938,
59.459599,0.788757,0.269025,
59.476429,0.788725,0.268646,
59.493252,0.788644,0.268834,
59.510098,0.788445,0.269214,
59.526928,0.788028,0.268808,
59.543751,0.787684,0.268381,
59.560581,0.788062,0.268811,
59.577396,0.788156,0.268812,
59.594212,0.788143,0.268538,
59.611042,0.788107,0.268866,
59.627895,0.788052,0.268986,
59.644711,0.787259,0.268371,
59.661541,0.787101,0.267956,
59.678356,0.787890,0.268759,
59.695164,0.788376,0.268960,
59.712002,0.787198,0.268157,
59.728825,0.786636,0.268300,
59.745670,0.787284,0.268726,
59.762508,0.787844,0.268416,
59.779316,0.787373,0.268055,
59.796154,0.786832,0.268424,
59.812962,0.787492,0.268725,
59.829777,0.787148,0.268137,
59.846607,0.786258,0.267960,
59.863453,0.786313,0.268154,
59.880276,0.787414,0.268138,
59.897106,0.787181,0.268146,
59.913929,0.786179,0.268401,
59.930752,0.785770,0.268051,
59.947575,0.786462,0.267732,
59.964390,0.786942,0.268143,
59.981220,0.786272,0.268228,
59.998074,0.785942,0.267817,
60.014889,0.786256,0.267699,
60.031719,0.786182,0.268248,
60.048542,0.785752,0.267870,
60.065342,0.785828,0.267411,
60.082180,0.786332,0.267769,
60.099010,0.786402,0.268443,
60.115849,0.785785,0.267927,
60.132687,0.785435,0.267406,
60.149494,0.785596,0.267723,
60.166332,0.786043,0.268019,
60.183140,0.785961,0.267802,
60.199955,0.785854,0.267589,
60.216785,0.785313,0.267839,
60.233639,0.785045,0.267643,
60.250454,0.785356,0.267299,
60.267284,0.786204,0.267538,
60.284115,0.785657,0.267829,
60.300922,0.784770,0.267513,
60.317753,0.784874,0.267271,
60.334568,0.785437,0.267549,
60.351421,0.785837,0.267911,
60.368252,0.785074,0.267301,
60.385067,0.784616,0.267021,
60.401897,0.785317,0.267684,
60.418713,0.785519,0.267873,
60.435520,0.784838,0.267347,
60.452358,0.784336,0.266736,
60.469189,0.784962,0.267360,
60.486027,0.785477,0.267759,
60.502865,0.785261,0.267611,
60.519695,0.784345,0.266921,
60.536510,0.784150,0.267056,
60.553318,0.784943,0.267397,
60.570133,0.785386,0.267310,
60.586964,0.784891,0.267047,
60.603817,0.784369,0.267251,
60.620632,0.784033,0.267305,
60.637463,0.784418,0.267044,
60.654293,0.784979,0.266804,
60.671101,0.784804,0.267061,
60.687931,0.784433,0.267431,
60.704762,0.784196,0.267331,
60.721600,0.784044,0.266696,
60.738430,0.784107,0.266486,
60.755260,0.784368,0.266945,
60.772076,0.784216,0.267295,
60.788891,0.784160,0.267137,
60.805698,0.784072,0.266698,
60.822536,0.783597,0.266430,
60.839375,0.783664,0.266779,
60.856205,0.783701,0.266990,
60.873028,0.783893,0.266853,
60.889866,0.783945,0.266593,
60.906673,0.783875,0.266616,
60.923496,0.783417,0.266709,
60.940334,0.783348,0.266652,
60.957157,0.783212,0.266301,
60.973995,0.783438,0.266272,
60.990826,0.783644,0.266589,
61.007641,0.783711,0.266762,
61.024464,0.783275,0.266461,
61.041271,0.782744,0.265942,
61.058102,0.782363,0.265653,
61.074932,0.782892,0.266043,
61.091778,0.783413,0.266515,
61.108608,0.783469,0.266487,
61.125439,0.782608,0.265745,
61.142254,0.781932,0.265148,
61.159069,0.781462,0.265196,
61.175900,0.781768,0.265668,
61.192715,0.782359,0.265863,
61.209560,0.782513,0.265452,
61.226398,0.782127,0.264799,
61.243206,0.781583,0.264595,
61.260044,0.780827,0.264695,
61.276844,0.780585,0.264784,
61.293674,0.780770,0.264411,
61.310513,0.781062,0.263883,
61.327343,0.781111,0.263598,
61.344173,0.780733,0.263605,
61.361004,0.779866,0.263735,
61.377819,0.779485,0.263261,
61.394634,0.779226,0.262435,
61.411465,0.779258,0.261821,
61.428280,0.779084,0.261715,
61.445110,0.778533,0.261670,
61.461956,0.777858,0.261420,
61.478786,0.777737,0.260683,
61.495617,0.777339,0.259703,
61.512432,0.776829,0.259141,
61.529247,0.776149,0.258757,
61.546078,0.775567,0.258411,
61.562893,0.775169,0.257762,
61.579739,0.775059,0.256809,
61.596577,0.774440,0.256013,
61.613384,0.773685,0.255401,
61.630222,0.772436,0.254454,
61.647030,0.771576,0.253398,
61.663853,0.771215,0.252456,
61.680691,0.770990,0.251709,
61.697521,0.770632,0.250839,
61.714352,0.769228,0.249542,
61.731182,0.767518,0.247914,
61.747997,0.766249,0.246615,
61.764812,0.765985,0.245775,
61.781643,0.765857,0.245016,
61.798458,0.765032,0.243416,
61.815296,0.763372,0.241493,
61.832142,0.761339,0.239726,
61.848965,0.760060,0.238679,
61.865795,0.759821,0.237651,
61.882610,0.759292,0.235799,
61.899426,0.757900,0.233648,
61.916256,0.756013,0.232023,
61.933079,0.754115,0.230595,
61.949917,0.753301,0.229049,
61.966755,0.752852,0.227079,
61.983562,0.751561,0.225171,
62.000385,0.749787,0.223513,
62.017208,0.748052,0.221753,
62.034031,0.746491,0.219585,
62.050869,0.745686,0.217635,
62.067715,0.744668,0.216228,
62.084530,0.743133,0.214608,
62.101360,0.741543,0.212364,
62.118183,0.739739,0.209975,
62.134991,0.738572,0.208457,
62.151821,0.737726,0.207446,
62.168636,0.736290,0.205577,
62.185490,0.735160,0.203315,
62.202320,0.733593,0.201460,
62.219143,0.732063,0.200360,
62.235973,0.731183,0.199076,
62.252781,0.730659,0.197438,
62.269604,0.729676,0.196107,
62.286434,0.728270,0.195045,
62.303288,0.726936,0.193786,
62.320095,0.726475,0.192599,
62.336933,0.726345,0.192263,
62.353764,0.725533,0.191772,
62.370556,0.724281,0.190811,
62.387386,0.724338,0.190216,
62.404202,0.724226,0.190528,
62.421055,0.723467,0.190741,
62.437885,0.722848,0.190795,
62.454708,0.723039,0.191361,
62.471539,0.724009,0.192896,
62.488354,0.723496,0.193819,
62.505169,0.722217,0.194222,
62.521999,0.722413,0.198107,
62.538845,0.723456,0.200887,
62.555668,0.723321,0.200246,
62.572498,0.722574,0.200966,
62.589314,0.722154,0.204004,
62.606144,0.722243,0.202952,
62.622959,0.722222,0.200414,
62.639782,0.722199,0.198957,
62.656612,0.722561,0.197582,
62.673466,0.722867,0.196078,
62.690273,0.722627,0.195029,
62.707111,0.722584,0.195379,
62.723942,0.723550,0.195094,
62.740734,0.724558,0.194751,
62.757565,0.725483,0.195287,
62.774403,0.725811,0.195791,
62.791233,0.725957,0.195857,
62.808064,0.726414,0.196341,
62.824886,0.728315,0.198154,
62.841717,0.729720,0.199115,
62.858532,0.730070,0.199302,
62.875347,0.730006,0.200489,
62.892178,0.731304,0.202492,
62.909023,0.733187,0.203886,
62.925846,0.734313,0.205077,
62.942677,0.734855,0.206901,
62.959507,0.736071,0.208446,
62.976315,0.737408,0.209581,
62.993137,0.737970,0.211604,
63.009968,0.738931,0.213706,
63.026798,0.740911,0.215139,
63.043644,0.742877,0.216709,
63.060452,0.743103,0.218648,
63.077290,0.742959,0.220032,
63.094112,0.744745,0.221707,
63.110912,0.747149,0.224071,
63.127743,0.748242,0.226033,
63.144581,0.748502,0.226869,
63.161411,0.749336,0.228345,
63.178242,0.750467,0.230570,
63.195072,0.751664,0.232381,
63.211895,0.752776,0.233400,
63.228710,0.753994,0.234902,
63.245541,0.754875,0.236616,
63.262356,0.754843,0.237646,
63.279209,0.755495,0.238781,
63.296024,0.757122,0.240708,
63.312855,0.758452,0.242094,
63.329685,0.759012,0.242884,
63.346478,0.759064,0.243869,
63.363316,0.759504,0.245288,
63.380146,0.760251,0.246425,
63.396984,0.761578,0.247348,
63.413822,0.762434,0.248512,
63.430653,0.762781,0.249389,
63.447468,0.762199,0.249639,
63.464275,0.762399,0.250259,
63.481091,0.764054,0.251940,
63.497921,0.765374,0.252970,
63.514767,0.765180,0.252926,
63.531590,0.764434,0.252910,
63.548420,0.764456,0.254031,
63.565250,0.765919,0.255166,
63.582066,0.766869,0.255479,
63.598888,0.766834,0.255592,
63.615719,0.766431,0.256205,
63.632534,0.766681,0.256818,
63.649387,0.767169,0.256962,
63.666218,0.767684,0.257347,
63.683033,0.767927,0.258050,
63.699863,0.767819,0.258370,
63.716656,0.767973,0.258117,
63.733494,0.767829,0.258019,
63.750324,0.768056,0.258843,
63.767162,0.768388,0.259586,
63.783985,0.768735,0.259502,
63.800823,0.768750,0.259066,
63.817646,0.768721,0.259173,
63.834454,0.768207,0.259738,
63.851292,0.768387,0.260169,
63.868099,0.768955,0.260063,
63.884953,0.769296,0.259713,
63.901783,0.769188,0.260041,
63.918598,0.768642,0.260355,
63.935429,0.768323,0.260445,
63.952236,0.768993,0.260417,
63.969059,0.769736,0.260360,
63.985889,0.769544,0.260538,
64.002724,0.768951,0.260526,
64.019569,0.768459,0.260455,
64.036400,0.768768,0.260476,
64.053215,0.769862,0.260870,
64.070030,0.769997,0.261038,
64.086861,0.769187,0.260726,
64.103676,0.768167,0.260291,
64.120506,0.768074,0.260236,
64.137360,0.769031,0.260777,
64.154167,0.770216,0.261304,
64.171005,0.769807,0.261045,
64.187828,0.768743,0.260403,
64.204636,0.767601,0.259938,
64.221474,0.767672,0.260283,
64.238281,0.769109,0.261229,
64.255135,0.770119,0.261387,
64.271965,0.769700,0.260828,
64.288780,0.768700,0.260243,
64.305611,0.767617,0.260149,
64.322426,0.768167,0.260852,
64.339241,0.769282,0.261220,
64.356071,0.769711,0.260971,
64.372925,0.769158,0.260407,
64.389748,0.768310,0.260126,
64.406578,0.767755,0.260640,
64.423393,0.768480,0.261120,
64.440208,0.768895,0.260948,
64.457039,0.768816,0.260375,
64.473854,0.768448,0.260022,
64.490692,0.768144,0.260429,
64.507538,0.768482,0.261101,
64.524345,0.768785,0.261158,
64.541183,0.768481,0.260592,
64.557991,0.767804,0.259773,
64.574814,0.767496,0.259886,
64.591652,0.767876,0.260700,
64.608459,0.768689,0.261201,
64.625313,0.769017,0.261006,
64.642143,0.768363,0.260212,
64.658958,0.767577,0.259927,
64.675781,0.766964,0.260217,
64.692604,0.767580,0.260653,
64.709419,0.768434,0.260841,
64.726250,0.768590,0.260453,
64.743103,0.768042,0.260100,
64.759926,0.767365,0.260168,
64.776756,0.766806,0.260230,
64.793579,0.767553,0.260414,
64.810387,0.768056,0.260286,
64.827217,0.767950,0.260172,
64.844032,0.767314,0.260259,
64.860878,0.766909,0.260183,
64.877716,0.767040,0.260101,
64.894524,0.767542,0.260060,
64.911362,0.767667,0.260134,
64.928169,0.767429,0.260268,
64.944992,0.766922,0.260008,
64.961830,0.766568,0.259817,
64.978668,0.766917,0.259894,
64.995491,0.767178,0.260219,
65.012321,0.767046,0.260194,
65.029160,0.766842,0.259838,
65.045952,0.766353,0.259476,
65.062782,0.766326,0.259605,
65.079597,0.766511,0.260260,
65.096451,0.766629,0.260061,
65.113281,0.766707,0.259515,
65.130104,0.766303,0.259224,
65.146927,0.765815,0.259687,
65.163750,0.765992,0.260176,
65.180565,0.766381,0.259767,
65.197395,0.766534,0.259263,
65.214226,0.766042,0.259397,
65.231056,0.765215,0.259629,
65.247894,0.764798,0.259482,
65.264725,0.765706,0.259320,
65.281540,0.766294,0.259511,
65.298347,0.765960,0.259704,
65.315163,0.764711,0.259258,
65.331993,0.764011,0.258705,
65.348846,0.764871,0.259202,
65.365669,0.765818,0.259782,
65.382500,0.765579,0.259432,
65.399338,0.764524,0.258721,
65.416130,0.763806,0.258687,
65.432961,0.763978,0.259175,
65.449791,0.764707,0.259293,
65.466629,0.765281,0.259027,
65.483459,0.764997,0.258996,
65.500290,0.763895,0.258859,
65.517105,0.762583,0.258294,
65.533920,0.763442,0.258600,
65.550743,0.765139,0.259339,
65.567574,0.765227,0.259292,
65.584404,0.763118,0.258037,
65.601234,0.761841,0.257863,
65.618073,0.762980,0.258801,
65.634903,0.764327,0.259081,
65.651703,0.764089,0.258474,
65.668526,0.762808,0.258207,
65.685364,0.762520,0.258218,
65.702187,0.762049,0.257901,
65.719025,0.762264,0.258005,
65.735847,0.762507,0.258483,
65.752678,0.763294,0.258339,
65.769501,0.762477,0.257631,
65.786308,0.760727,0.257503,
65.803139,0.760438,0.257829,
65.819969,0.761961,0.257892,
65.836807,0.762978,0.257910,
65.853638,0.761844,0.257837,
65.870468,0.760308,0.257156,
65.887283,0.759795,0.256629,
65.904099,0.760847,0.257351,
65.920929,0.761828,0.257987,
65.937752,0.761597,0.257144,
65.954605,0.760288,0.256427,
65.971413,0.759182,0.256682,
65.988251,0.759129,0.256936,
66.005081,0.760391,0.256575,
66.021873,0.760737,0.256780,
66.038704,0.759901,0.256673,
66.055542,0.758627,0.255712,
66.072372,0.757951,0.255227,
66.089203,0.758144,0.255966,
66.106033,0.759327,0.256127,
66.122856,0.759504,0.255358,
66.139671,0.758170,0.254983,
66.156502,0.756211,0.254679,
66.173317,0.755994,0.254252,
66.190147,0.758034,0.254661,
66.206985,0.758293,0.254915,
66.223816,0.756601,0.253935,
66.240646,0.754773,0.252696,
66.257462,0.755046,0.252946,
66.274277,0.755616,0.253406,
66.291107,0.755710,0.252826,
66.307930,0.755365,0.251913,
66.324783,0.754823,0.251874,
66.341614,0.753178,0.251246,
66.358429,0.752038,0.250394,
66.375259,0.753183,0.250549,
66.392075,0.754322,0.250786,
66.408882,0.753362,0.249878,
